,VehPower,VehAge,DrivAge,BonusMalus,Density,Diesel
0,45302.98438707687,45302.98438707687,45302.98438707687,45302.98438707687,45302.98438707687,45302.98438707687
1,45302.74539656388,45302.5953902919,45302.425584198216,45302.29059950405,45302.22493108318,45302.169809763385
2,45301.93187982753,45301.769952871044,45301.600890955495,45301.46632779404,45301.40114574296,45301.346655227855
3,45301.10100199492,45300.94110217238,45300.77276223558,45300.6386367551,45300.57371741846,45300.519821884736
4,45300.2752246735,45300.11731357689,45299.94969222237,45299.8160028922,45299.75140604693,45299.65929802554
5,45299.41575508106,45299.25610407754,45299.08919857182,45298.955941418535,45298.8915039237,45298.800165080385
6,45298.55767176786,45298.40002793104,45298.233835062216,45298.101008839745,45298.03689612869,45297.94626750373
7,45297.70481928801,45297.54914468402,45297.38366101829,45297.251264506864,45297.18737222694,45297.09746068359
8,45296.845776791146,45296.69781914603,45296.533041264614,45296.40107651605,45296.33741532566,45296.262734630865
9,45296.01211078999,45295.860621242915,45295.697903189925,45295.56637318949,45295.50326385737,45295.41453457844
10,45295.16496622136,45295.015379089804,45294.85336083384,45294.72226014866,45294.65905230801,45294.5853020195
11,45294.336785736625,45294.18906523025,45294.02774293743,45293.897074406545,45293.835121937285,45293.76183172192
12,45293.51436262299,45293.36685466211,45293.206224381735,45293.07598674607,45293.01444272994,45292.964845717375
13,45292.71693959897,45292.571276225775,45292.41133272641,45292.281522524034,45292.220007757496,45292.146687456465
14,45291.90129790449,45291.75475258853,45291.59549497614,45291.46611447359,45291.404877513734,45291.33201548577
15,45291.08618936044,45290.941482033624,45290.78290513011,45290.65395291796,45290.592980560104,45290.52057612751
16,45290.275784774516,45290.13287920544,45289.9749797733,45289.846454637984,45289.78573214292,45289.713782767474
17,45289.47148301447,45289.32994419905,45289.17272107479,45289.04462172896,45288.9837111131,45288.912212386305
18,45288.66947443071,45288.52968007441,45288.37312816121,45288.24545319188,45288.18471684193,45288.11366826651
19,45287.871952247246,45287.713332264335,45287.557449150205,45287.430197119116,45287.36971303316,45287.29911206946
20,45287.057971244256,45286.90114118109,45286.7459249197,45286.619092711866,45286.55886033771,45286.47526062368
21,45286.233672429735,45286.07859613665,45285.9240422852,45285.797623239225,45285.73763800973,45285.66791442215
22,45285.42733593665,45285.26881633665,45285.11492138138,45284.98891969315,45284.92929196701,45284.884319331046
23,45284.64618142817,45284.48222772377,45284.3289904165,45284.20340104339,45284.14391232425,45284.07505936052
24,45283.836482218234,45283.67601671697,45283.52343275289,45283.398258354326,45283.339057490855,45283.25869975422
25,45283.022544501146,45282.86399806802,45282.712066770015,45282.58730663992,45282.52826240029,45282.46027167695
26,45282.223674892506,45282.067009685794,45281.91572573813,45281.79137800523,45281.732565983446,45281.66500592843
27,45281.42939897605,45281.274577252705,45281.12393765753,45281.00000115394,45280.94144019823,45280.8743083537
28,45280.64110833507,45280.48809303721,45280.33809662178,45280.214570156735,45280.15626546385,45280.089557603496
29,45279.8559146763,45279.70466990561,45279.55531172926,45279.432194040404,45279.3741071705,45279.307822716146
30,45279.075157034444,45278.92564778215,45278.77692491721,45278.65421470946,45278.59641164918,45278.53054816968
31,45278.30026572676,45278.14678506726,45277.99869695325,45277.876393167084,45277.83457473113,45277.75735636185
32,45277.52661982318,45277.373036516845,45277.22557560339,45277.10367380475,45277.04630411464,45276.962251553196
33,45276.73388574149,45276.58381179782,45276.43772471218,45276.3162372849,45276.259066296785,45276.21448662534
34,45275.98568983967,45275.83738069802,45275.69191245897,45275.570835198145,45275.51389099775,45275.43227587476
35,45275.204446503834,45275.057864128095,45274.91301239863,45274.792343158464,45274.73560330742,45274.66780389099
36,45274.4423397637,45274.297459130554,45274.153222572226,45274.03296536562,45273.97647226887,45273.913773481865
37,45273.68787488664,45273.53946623266,45273.39583835182,45273.27599948511,45273.21977174496,45273.15747971711
38,45272.932541834285,45272.77846435497,45272.63544204226,45272.51602854237,45272.45993576976,45272.37169172889
39,45272.14910058947,45271.989569999976,45271.84715473755,45271.72816416697,45271.67368736583,45271.612203441044
40,45271.38919788776,45271.22677335313,45271.08495957658,45270.96639173129,45270.912140617686,45270.852063949154
41,45270.630028236184,45270.47249023456,45270.33127665528,45270.2131253825,45270.15912495814,45270.122728366005
42,45269.90301023419,45269.74803906559,45269.60742474959,45269.48968107531,45269.43464441445,45269.37535931324
43,45269.15521298522,45269.00220523706,45268.86218560562,45268.74485560072,45268.6912511482,45268.61784565061
44,45268.39863947901,45268.24073398556,45268.10130769737,45267.98438824146,45267.92987612028,45267.85808428771
45,45267.641169924405,45267.48779120225,45267.34895521718,45267.232449481715,45267.17809552694,45267.108522074974
46,45266.89118603541,45266.7540883387,45266.61584000778,45266.498284172674,45266.44526031496,45266.38754096393
47,45266.17249874547,45266.02392427376,45265.88626193642,45265.77057848046,45265.71668522249,45265.65935444189
48,45265.443893032905,45265.294663055814,45265.15758231437,45265.04086264459,45264.98832977832,45264.91708778428
49,45264.70256764884,45264.555323463705,45264.41882269805,45264.30396091032,45264.250455421425,45264.193899772195
50,45263.981657615936,45263.83309804443,45263.69717525076,45263.582724231936,45263.529431160845,45263.49669129982
51,45263.28402274714,45263.13716119902,45263.00181228189,45262.88632117973,45262.83439343315,45262.7785930978
52,45262.566856040925,45262.42166766702,45262.28688942723,45262.173245406404,45262.12036974598,45262.0578926428
53,45261.84704438713,45261.70282037497,45261.568591609466,45261.453922191344,45261.40127210865,45261.32314348013
54,45261.11318573197,45260.97101023292,45260.83732933902,45260.7244919307,45260.67312505509,45260.62262302724
55,45260.41355466764,45260.27417611456,45260.141039440205,45260.027183090686,45259.97485554313,45259.924681719946
56,45259.71650646176,45259.57011448481,45259.43751880175,45259.32550156006,45259.27338731254,45259.22354057875
57,45259.01625706715,45258.87010147956,45258.7380445766,45258.62502855795,45258.57428182574,45258.525337262356
58,45258.32026911937,45258.175453709344,45258.04393445642,45257.93274037659,45257.88110151836,45257.81859225256
59,45257.61307352407,45257.46485270557,45257.33386682877,45257.22168757351,45257.17021344299,45257.11070631221
60,45256.90607475999,45256.75760908968,45256.627153309004,45256.51540111916,45256.463965241026,45256.415962567036
61,45256.21222224733,45256.081768622884,45255.95183792986,45255.849130304094,45255.79677757911,45255.74908621253
62,45255.546222889345,45255.41672937604,45255.28732150082,45255.18502093031,45255.13289310923,45255.08551121309
63,45254.88352091508,45254.75411464193,45254.625227165416,45254.523332147524,45254.472502117715,45254.411738739436
64,45254.21061565493,45254.076749895125,45253.948382008515,45253.84688949787,45253.79508874153,45253.73729739321
65,45253.537032777465,45253.403736567765,45253.27588538539,45253.17479379734,45253.123115221264,45253.07665045156
66,45252.87724820424,45252.74532832196,45252.617991272564,45252.5173006758,45252.467048162755,45252.42088629849
67,45252.219219821294,45252.093667060144,45251.966840992565,45251.86654635481,45251.81536615402,45251.76950943075
68,45251.56870017706,45251.44297957372,45251.31666098874,45251.21810563666,45251.16739188357,45251.10835423736
69,45250.908401811146,45250.78393427632,45250.658122102104,45250.55861123756,45250.5079368141,45250.451800284594
70,45250.25270280523,45250.13407440039,45250.00876558065,45249.9095663213,45249.85813649659,45249.81318505699
71,45249.6149471894,45249.49143893602,45249.36663120057,45249.267826108335,45249.21763867513,45249.17298614593
72,45248.97560388932,45248.841509272155,45248.71720292358,45248.618782696954,45248.56868225895,45248.524324444144
73,45248.3277968312,45248.194862347445,45248.071054945765,45247.97301824224,45247.9221528255,45247.86478482242
74,45247.66910631856,45247.53795005777,45247.41464048429,45247.31698434835,45247.26740134705,45247.21288136884
75,45247.01804327694,45246.89700585717,45246.774190869866,45246.676913612406,45246.62722912725,45246.58184516409
76,45246.3878535173,45246.267716506336,45246.14539445971,45246.04849681315,45245.998181243456,45245.95309663961
77,45245.75994770491,45245.64069838448,45245.5188669386,45245.422347507905,45245.373319921164,45245.32853310794
78,45245.136223243695,45245.017848967895,45244.89650591854,45244.80036324379,45244.75130398249,45244.706813367186
79,45244.51533877956,45244.39782703907,45244.287392928614,45244.19289892046,45244.14310319397,45244.07633037931
80,45243.885677061,45243.768986373165,45243.64860376752,45243.553192281404,45243.50479060871,45243.46085418935
81,45243.271028875315,45243.15488048781,45243.04537975814,45242.9503408245,45242.90178897867,45242.85814714775
82,45242.66914186608,45242.54947534866,45242.44422578138,45242.34957257,45242.3004001303,45242.26322053379
83,45242.07498492864,45241.95573306011,45241.84046842466,45241.746202502356,45241.69830062142,45241.655190816484
84,45241.467744790476,45241.348914329865,45241.2344465506,45241.140564370835,45241.091756953036,45241.04420473722
85,45240.85751948466,45240.739106121604,45240.62465675466,45240.53115752446,45240.48436006897,45240.44787338583
86,45240.26195251736,45240.14395694864,45240.04031136908,45239.947194833534,45239.898805093486,45239.8562379919
87,45239.67109243398,45239.55350581781,45239.4398913636,45239.347151426155,45239.29882161555,45239.262072242505
88,45239.077697104905,45238.960527801275,45238.84767468625,45238.74989087196,45238.70368939724,45238.65625766974
89,45238.47263078328,45238.35587006549,45238.25343547408,45238.156031304556,45238.10811637274,45238.062186496834
90,45237.879299089844,45237.76293860635,45237.65051700222,45237.55349609132,45237.50578522295,45237.47004276758
91,45237.287902199976,45237.1719538966,45237.06028631336,45236.96364922843,45236.91800927104,45236.876663177536
92,45236.695285216316,45236.579747371885,45236.468125197905,45236.37186490309,45236.324485922676,45236.28954456378
93,45236.108907529684,45235.993777698604,45235.89290928724,45235.7970288938,45235.749783767125,45235.704526164496
94,45235.524616046576,45235.40943851156,45235.29860811916,45235.20307435996,45235.15794173609,45235.12344717409
95,45234.94427175831,45234.82950004559,45234.71939010389,45234.624265074315,45234.577392314735,45234.54240903712
96,45234.36397790496,45234.2496139118,45234.14990424769,45234.055119395736,45234.008437532684,45233.96828984246
97,45233.79060102769,45233.676632764036,45233.566982686316,45233.47373154652,45233.42902931324,45233.38361386826
98,45233.206638973934,45233.08922843093,45232.98030186002,45232.8862325224,45232.83992153186,45232.79623359538
99,45232.61997202819,45232.502946536675,45232.39405537914,45232.31151576012,45232.265199283414,45232.231406580526
100,45232.05585365357,45231.93921265218,45231.84102804806,45231.758845211814,45231.713888039376,45231.68067174261
101,45231.50582054455,45231.389553768255,45231.29175395326,45231.209865603785,45231.16481832778,45231.13182155284
102,45230.95766922647,45230.84177489292,45230.724028194934,45230.642464901495,45230.59679914668,45230.560069135754
103,45230.38662440343,45230.271113743525,45230.17405602994,45230.09280790397,45230.048363631504,45229.99956680839
104,45229.826826187054,45229.71168466838,45229.604713734276,45229.523781836644,45229.47916614408,45229.44676392306
105,45229.27471768747,45229.15995264487,45229.06365820079,45228.983046686706,45228.93781664705,45228.8941580058
106,45228.72279406364,45228.60839119721,45228.49218125734,45228.41188657556,45228.3678900323,45228.335906236956
107,45228.16523561486,45228.05121569314,45227.95773401323,45227.877756792994,45227.83368300517,45227.801561809
108,45227.63157279065,45227.51791839264,45227.42271097366,45227.343050360934,45227.29935670644,45227.25800493519
109,45227.08868925017,45226.97539503843,45226.86028394893,45226.78093905923,45226.736403087954,45226.70504801613
110,45226.53641722617,45226.423502094854,45226.32900410406,45226.249973519974,45226.20728879576,45226.170015511976
111,45226.002074611155,45225.88952291878,45225.787209520335,45225.70848731568,45225.665383132124,45225.634424683056
112,45225.46715855574,45225.35497454485,45225.25124701873,45225.172837742895,45225.12739677621,45225.096300279925
113,45224.92970645464,45224.817891160936,45224.7142103533,45224.63611164948,45224.59301402829,45224.53777599755
114,45224.371843788336,45224.260379168416,45224.16939215911,45224.09159164826,45224.04747710372,45224.01709699015
115,45223.85182758905,45223.740952109096,45223.64825802695,45223.5707663735,45223.52725907256,45223.49708343792
116,45223.332474168325,45223.22174799833,45223.10919413047,45223.032010710245,45222.988122603085,45222.957802800265
117,45222.793858670244,45222.68350368671,45222.59355591388,45222.517788039746,45222.47647036689,45222.441062009675
118,45222.27778699623,45222.16778698122,45222.066553037665,45221.9899644564,45221.94559613963,45221.9061246587
119,45221.743500547534,45221.633856394365,45221.533262582685,45221.45704267608,45221.41355945405,45221.38416562911
120,45221.22220002617,45221.1129141729,45221.0144212024,45220.93843594723,45220.89562500885,45220.866087853174
121,45220.7047715739,45220.59583992396,45220.50403316623,45220.42834880932,45220.382526634996,45220.35352639956
122,45220.19284934736,45220.08413731926,45219.98428289882,45219.90896435399,45219.86650439277,45219.82272947579
123,45219.66270096724,45219.55433020958,45219.455281561764,45219.385326452524,45219.34151343369,45219.30346041421
124,45219.14405093188,45219.03602057979,45218.94520435816,45218.87045465042,45218.82591596393,45218.79162804764
125,45218.632869869616,45218.52517541123,45218.42450480945,45218.34997431776,45218.306629497536,45218.278355598944
126,45218.13380130142,45218.02643922832,45217.91616571257,45217.84703905212,45217.8051168079,45217.77704115817
127,45217.63306609498,45217.5260433569,45217.440006631296,45217.37123150156,45217.3263594397,45217.29445529594
128,45217.151047880136,45217.04435107831,45216.94460572628,45216.876027712824,45216.83321440207,45216.796221122306
129,45216.65338034395,45216.547011393464,45216.447590796386,45216.37929543,45216.337071795955,45216.305542469825
130,45216.16269937528,45216.05665453609,45215.951450255016,45215.88349928297,45215.84064018025,45215.79701616751
131,45215.65531287642,45215.5496058109,45215.46095826249,45215.393199441656,45215.351824125435,45215.32384218894
132,45215.168677108435,45215.06330087878,45214.964842212015,45214.89742903682,45214.854624646876,45214.82761210825
133,45214.686469105654,45214.58141815501,45214.475362995625,45214.4081435151,45214.364976936595,45214.32499217667
134,45214.18493733977,45214.08021122723,45213.99429435575,45213.92734565763,45213.88715513433,45213.86049774871
135,45213.720463365746,45213.616060651715,45213.518502882565,45213.45190484068,45213.40958987248,45213.38230632132
136,45213.242818685496,45213.138740001545,45213.043500804284,45212.97708668203,45212.93355683902,45212.90196782521
137,45212.763048380475,45212.659291885146,45212.55247207041,45212.48866367029,45212.44814865176,45212.42118682034
138,45212.283357177774,45212.1799311198,45212.09342381602,45212.02761951485,45211.98651883815,45211.93989409004
139,45211.802056755325,45211.69893469475,45211.60638453682,45211.54325066717,45211.50099691712,45211.47118462559
140,45211.33388060958,45211.231077324424,45211.12518122739,45211.06238780271,45211.02044607787,45210.994791289384
141,45210.85858181567,45210.756102520594,45210.660397975735,45210.597777132745,45210.5587885914,45210.5324984376
142,45210.39628009085,45210.29411795744,45210.21252735089,45210.15016122081,45210.10753289113,45210.08222270496
143,45209.94655491365,45209.8447049346,45209.73969480551,45209.67767410162,45209.6388312902,45209.59878086248
144,45209.46419716385,45209.362668538146,45209.26785693503,45209.20369322865,45209.163248332465,45209.13743706634
145,45208.996933594455,45208.89572324801,45208.813225663835,45208.75170472423,45208.71343898969,45208.68779740187
146,45208.5522834999,45208.45137744884,45208.358938530124,45208.298095936705,45208.25873943274,45208.23406147537
147,45208.105489205394,45208.00489477255,45207.91113012566,45207.8500025839,45207.80995836397,45207.77071624186
148,45207.63622756601,45207.53593265304,45207.44229529611,45207.381490812186,45207.34435821663,45207.32245209393
149,45207.188480467565,45207.08849055848,45207.0088773226,45206.9483139651,45206.90942359415,45206.87559795316
150,45206.74979257336,45206.64427871109,45206.5413407735,45206.47873631047,45206.43907293003,45206.41161157381
151,45206.278656810224,45206.173463732615,45206.08070643022,45206.02060640871,45205.98402996134,45205.96256167149
152,45205.830119349455,45205.72523402514,45205.64469991922,45205.582557590795,45205.541341288765,45205.51920671101
153,45205.39488850547,45205.29029853778,45205.18826736404,45205.128628041784,45205.090163880675,45205.06510837164
154,45204.93364545615,45204.82936509647,45204.751129198296,45204.68944437169,45204.6519767071,45204.63105544038
155,45204.500099527846,45204.39612159075,45204.30449335364,45204.24303850881,45204.205334618935,45204.18456488064
156,45204.06170149638,45203.958020919126,45203.85684197692,45203.79787592478,45203.760007539684,45203.72766925387
157,45203.59468161139,45203.49130552008,45203.41385813061,45203.35287374095,45203.31486041358,45203.2864144484
158,45203.16449306579,45203.06128556654,45202.9705052715,45202.91189489451,45202.87531338252,45202.849516813396
159,45202.71745621611,45202.61454841917,45202.52415725733,45202.46362932619,45202.424236753846,45202.401824734276
160,45202.27326461172,45202.170652687884,45202.09231322223,45202.03425372649,45201.995969270334,45201.97378360843
161,45201.843136877804,45201.74081129236,45201.64273800787,45201.582562739626,45201.54635227415,45201.52028053786
162,45201.39264222212,45201.291441179055,45201.20176164012,45201.145526066204,45201.108448628846,45201.07768407991
163,45200.95754469886,45200.85581475125,45200.76842532807,45200.72046749576,45200.6833306724,45200.661859211425
164,45200.53484078734,45200.43422857617,45200.34680349272,45200.29097408446,45200.253904632074,45200.23110072054
165,45200.10084985806,45199.99971087574,45199.91093453717,45199.861003037186,45199.82579917814,45199.784882478656
166,45199.66607461733,45199.5652177708,45199.471102511015,45199.423677336235,45199.38643853842,45199.363269106725
167,45199.23439932679,45199.1346630294,45199.03896902199,45198.98363935154,45198.94722853198,45198.91006038118
168,45198.784837411105,45198.68455691973,45198.5810702439,45198.528272975294,45198.49347468752,45198.46274632403
169,45198.337490469756,45198.23835241293,45198.14512680402,45198.09601685697,45198.059903888665,45198.03910058811
170,45197.92122288369,45197.82153431424,45197.72674837974,45197.680024637404,45197.64335936953,45197.60015051961
171,45197.477121418284,45197.37855767603,45197.29301501647,45197.23847766413,45197.20470891884,45197.18413055767
172,45197.05740285937,45196.95829256426,45196.8573114417,45196.80879568037,45196.77235773734,45196.743447057306
173,45196.626843175225,45196.52899230471,45196.41667164219,45196.36479667194,45196.328540283095,45196.295575558994
174,45196.16965154446,45196.0711373749,45195.970573140614,45195.92242455821,45195.88892565261,45195.85471987977
175,45195.73287065445,45195.63550413406,45195.518042973934,45195.474746230815,45195.43799199387,45195.419452878734
176,45195.29770669277,45195.19990256747,45195.08793631152,45195.03902760433,45195.00308457664,45194.97059061164
