,VehPower,VehAge,DrivAge,BonusMalus,Density,Diesel
0,51017.71028334211,51017.71028334211,51017.71028334211,51017.71028334211,51017.71028334211,51017.71028334211
1,51014.83525168764,51012.94819830347,51011.177881032425,51009.63001002372,51009.07517260657,51008.34713610176
2,51005.57135897741,51003.8171790132,51002.12921823243,51000.624706719726,51000.091648063186,50999.1765067224
3,50996.51463488419,50994.85548670333,50993.23819132675,50991.791171922414,50991.27935260681,50990.41540001445
4,50987.762952557016,50986.13989999766,50984.589961574195,50983.17397929604,50982.70246015296,50981.88694451231
5,50979.36761854803,50977.75347613798,50976.26817623614,50974.89219498094,50974.40248765454,50973.63303655595
6,50971.19177742977,50969.384443676776,50967.960953714486,50966.653519513435,50966.20063151606,50965.54304219699
7,50963.092137468084,50961.06804687668,50959.70238258689,50958.46015748664,50958.011697591646,50957.56140367454
8,50955.23717549798,50953.79340077043,50952.47638131578,50951.24791035786,50950.810165842035,50950.41664142958
9,50948.16096430804,50946.78635882608,50945.55070225513,50944.36900234511,50943.97347416844,50943.595805189325
10,50941.46319154764,50940.134930240136,50938.95279591251,50937.838049487356,50937.41346104583,50937.12000144746
11,50935.07464020989,50933.79826204524,50932.66046741176,50931.545837552665,50931.16188111348,50930.76166681847
12,50928.846031518,50927.5477376126,50926.46893043927,50925.45614477001,50925.08862795828,50924.80128486424
13,50922.970038327505,50921.672349227156,50920.476187640474,50919.53578603034,50919.132624664875,50918.89868482883
14,50916.98486777337,50915.78023409042,50914.642214697764,50913.74177279149,50913.38977411964,50913.19041446921
15,50911.38333278912,50910.17954182153,50908.881268352605,50908.05698414522,50907.69854945998,50907.459929713244
16,50905.72456256158,50904.50145630477,50903.175117674415,50902.47128736171,50902.08852347759,50901.80978766713
17,50900.126548604654,50898.99619866611,50897.70202158849,50896.98592846298,50896.63580629247,50896.43251665096
18,50894.84656535385,50893.75441948355,50892.064691207364,50891.446132290745,50891.092638929375,50890.88089210267
19,50889.43799017757,50888.3854985674,50887.006949107155,50886.42602291115,50886.09573288994,50885.86534430636
20,50884.34974403402,50883.32366377481,50881.82294186546,50881.24978424492,50880.91659397621,50880.66593862418
21,50879.211185334076,50878.214900966515,50876.88502435181,50876.45710232728,50876.114085194466,50875.874663089744
22,50874.514892303065,50873.547943966296,50872.20694672752,50871.65522508974,50871.3403787181,50871.17972885176
23,50869.746451155006,50868.80533205315,50867.329348028885,50867.11689276298,50866.767771780826,50866.55610258593
24,50865.15284936138,50864.23527985297,50863.04935166324,50862.68882104298,50862.35565245541,50862.17433756897
25,50860.789678605084,50859.91136268954,50858.468813235384,50858.051196579065,50857.72855893503,50857.40605075005
26,50856.11019350898,50855.26102682428,50854.13033576409,50853.81953744378,50853.50432975594,50853.25352711875
27,50851.998215178966,50851.12479043173,50849.89936526409,50849.530654162896,50849.207578261754,50849.05600815511
28,50847.7946281781,50846.99344374323,50846.04932698137,50845.779586316756,50845.48225364356,50845.23656995389
29,50844.030886057284,50843.233484610726,50842.103707897804,50841.90134346495,50841.59777174291,50841.355274669935
30,50840.06799960293,50839.23962370419,50838.212979323456,50837.97039140689,50837.68091930843,50837.450695148465
31,50836.292935036465,50835.48733599192,50834.381631927914,50834.16552576785,50833.88425254337,50833.62493362605
32,50832.51081147099,50831.78040155772,50830.731516151136,50830.558532600895,50830.28737103273,50830.00762016691
33,50828.71399150303,50827.94250267863,50826.77390961032,50826.47479282459,50826.24613813725,50825.98080461211
34,50824.88908200794,50824.031084111004,50823.04875015826,50822.92049942786,50822.64800956577,50822.41666189698
35,50821.28467668599,50820.436204893,50819.384388127,50819.21057847806,50818.99335995685,50818.707252843284
36,50817.660391608304,50816.8479122099,50815.922613868446,50815.730609211954,50815.51335322495,50815.28023812756
37,50814.154558358394,50813.32886344858,50812.384977829046,50812.27613971258,50812.038646707915,50811.86650086347
38,50810.745345044445,50809.915673866366,50809.106307323156,50808.877641118605,50808.62810130091,50808.329579422294
39,50807.22490773244,50806.6743085061,50805.85794631891,50805.69343979202,50805.487386535846,50805.247906047014
40,50804.18377037864,50803.41657984301,50802.41055950769,50802.31059734708,50802.09582633368,50801.924420251686
41,50800.92022313862,50800.07714414751,50799.21594347421,50799.05979325063,50798.82980123153,50798.52530305523
42,50797.50801563786,50796.78760656603,50795.94966367363,50795.78608970357,50795.5865550031,50795.31831989037
43,50794.49524634771,50793.79810305506,50793.20832645723,50793.04318713505,50792.82431478657,50792.65125142572
44,50791.795604650775,50791.000037550504,50790.04779000554,50789.87160110842,50789.647952527535,50789.35018934811
45,50788.54096296524,50787.8110580538,50787.154188440865,50786.95777908279,50786.733692074646,50786.502761466894
46,50785.626536429634,50785.00022502243,50784.255352049775,50784.13351686984,50783.94534206451,50783.65015776016
47,50782.91564266955,50782.14529935781,50781.50607735172,50781.42661059028,50781.22398614833,50780.91900591282
48,50780.16440921539,50779.46883327429,50778.71359541292,50778.52844729217,50778.32461214781,50778.09775197831
49,50777.29548909027,50776.57616434383,50775.77847897208,50775.67739274386,50775.49043136974,50775.20999517479
50,50774.415722306294,50773.740527173206,50773.00101928,50772.80245623749,50772.61642866258,50772.367706645746
51,50771.720689781156,50771.08288094403,50770.21944851198,50770.11489998511,50769.9288921106,50769.687364177844
52,50768.923398521845,50768.24847842649,50767.67122847603,50767.47825758472,50767.299831763536,50766.954807041795
53,50766.28541911274,50765.61258963736,50764.80820954441,50764.63466250635,50764.47542434315,50764.09986520122
54,50763.432855142346,50762.85295260829,50762.20206652189,50762.06478325912,50761.909124696685,50761.45818765393
55,50760.870297324436,50760.24568237942,50759.562826469664,50759.446334798355,50759.27376442193,50758.8697665157
56,50758.24620553023,50757.62366680906,50756.8776954406,50756.66865090745,50756.513433269756,50756.096730832796
57,50755.449779758186,50754.7389478226,50753.8826672873,50753.786926155226,50753.62859487768,50753.28255220603
58,50752.717331394684,50752.09712999381,50751.445592432916,50751.310751750316,50751.153040395024,50750.7836092747
59,50750.16543355268,50749.643300732314,50748.97699432982,50748.75581211047,50748.624890634135,50748.248935563126
60,50747.60402089426,50746.98422776491,50746.23350854738,50746.123228994504,50745.95294416034,50745.63008643701
61,50745.111178758125,50744.55536468029,50743.84620809901,50743.74363713402,50743.57679637338,50743.200480430474
62,50742.535273204005,50742.05582988905,50741.58846702617,50741.39432848071,50741.23458782425,50740.88844215165
63,50740.2869685556,50739.730187866626,50739.211747390706,50739.093047219554,50738.91207008538,50738.50152349892
64,50737.87357155962,50737.32585933322,50736.57692327645,50736.418094288114,50736.23371982439,50735.892888307935
65,50735.3214299933,50734.85259618051,50734.3741851363,50734.17757560443,50733.994549625546,50733.65731608049
66,50732.98246226609,50732.33407308453,50731.685021121375,50731.57873914386,50731.408523999366,50731.01277727003
67,50730.55860768327,50730.0852322733,50729.63002313052,50729.50286378488,50729.345686010885,50729.008864170224
68,50728.3088674442,50727.74776801228,50727.26287792747,50727.10280330083,50726.94373051948,50726.63902292584
69,50726.19806337532,50725.705257101064,50725.0492688551,50724.86101064779,50724.71762191872,50724.35989852135
70,50723.74300915842,50723.28340951135,50722.74123719567,50722.60544747025,50722.463909705344,50722.058084313314
71,50721.39907125071,50720.93345290728,50720.40719633462,50720.257184544396,50720.11406615157,50719.74072805688
72,50719.3347490803,50718.84331313751,50718.39778014256,50718.22145994539,50718.064007812834,50717.627929501476
73,50717.00500346869,50716.80993861918,50716.28928623124,50716.12419043485,50715.9710841109,50715.53702637943
74,50715.007805060544,50714.50168825371,50713.956299220394,50713.796653839316,50713.67467407291,50713.43326762509
75,50713.07044237152,50712.59503227673,50712.011449476006,50711.88693374837,50711.75213720658,50711.458606989094
76,50710.78667659033,50710.40418704049,50709.941218199354,50709.83906510115,50709.711348271514,50709.32879838896
77,50708.90114690644,50708.42723065907,50707.85131453563,50707.6668271685,50707.53089076837,50707.36014815631
78,50706.891414010584,50706.43654968772,50705.87816026112,50705.69828486747,50705.578967386,50705.34318465417
79,50704.9014122884,50704.45433054436,50703.99774490797,50703.882750127275,50703.76682816329,50703.41176175974
80,50702.84488195784,50702.41232706565,50702.008812979926,50701.82671125195,50701.70035446627,50701.40161625106
81,50701.00359433742,50700.51958295652,50699.92709435403,50699.86368113498,50699.78441324149,50699.52255015849
82,50698.973754833336,50698.47373190657,50698.05524267047,50697.94188237688,50697.80768044693,50697.61785402052
83,50697.28305498613,50696.82516846194,50696.352650110595,50696.26169871021,50696.1624839194,50695.90265311234
84,50695.460110349435,50695.08730580704,50694.43871713609,50694.27026396162,50694.17741831178,50693.902225674436
85,50693.50121344006,50693.0772219674,50692.66796003777,50692.54558274034,50692.45237194673,50692.2370867181
86,50691.73721309349,50691.191772226455,50690.63247770937,50690.45890310585,50690.37264106382,50690.12293149216
87,50689.67684679755,50689.15747787009,50688.74101403032,50688.68129258772,50688.600222790265,50688.4068835043
88,50688.049441186056,50687.64295583367,50687.16677117019,50687.025556658205,50686.95049684275,50686.77725283121
89,50686.30966136449,50685.81845067677,50685.34102239862,50685.24167921836,50685.164724853035,50684.86649922008
90,50684.30482369929,50683.81108408841,50683.47641370389,50683.332385148795,50683.25125254122,50683.00308889255
91,50682.57433141809,50682.15149045011,50681.681186100635,50681.57253660473,50681.49008671777,50681.31413906732
92,50680.747056020984,50680.136304312866,50679.79695824753,50679.629594084305,50679.56590130263,50679.23580122032
93,50678.73825979583,50678.256893198784,50677.844933498825,50677.73398857258,50677.65556436421,50677.42175397233
94,50676.91378158356,50676.45466683128,50676.0311414171,50675.9184909401,50675.869010618546,50675.637062060385
95,50675.21480958312,50674.47763754296,50673.98420537287,50673.914266095286,50673.85540050817,50673.52681061499
96,50673.044556802735,50672.66856441247,50672.19793942917,50672.062252014046,50671.98516421438,50671.77926380851
97,50671.31235701021,50670.78949207919,50670.468802058815,50670.40180475054,50670.34105057741,50670.22102444503
98,50669.6118396371,50669.09468412645,50668.688022460665,50668.593383795145,50668.53013991844,50668.33426231264
99,50667.879991705,50667.309957548125,50666.866800693155,50666.692899581176,50666.648946325855,50666.39206973557
100,50665.787451094715,50665.27354725899,50664.8461785383,50664.74811900279,50664.630867468135,50664.374962796195
101,50663.92996833224,50663.490045330516,50663.1118934607,50663.04203426675,50662.94754827056,50662.70852482718
102,50662.32717035871,50661.744347816355,50661.226650739234,50661.12699889948,50661.01285016035,50660.830987329144
103,50660.28605343707,50659.80460438932,50659.49809653955,50659.39459933348,50659.27254100856,50658.995271188294
104,50658.39708729871,50657.93074664975,50657.578789127794,50657.4527152265,50657.31462454474,50656.98789444763
105,50656.5298944855,50656.148041109336,50655.83226090609,50655.78179115134,50655.63473088258,50655.37840070109
106,50654.94713740164,50654.537071560575,50654.08897682704,50654.011814647434,50653.87872758345,50653.693700458316
107,50653.19420733015,50652.6732971763,50652.27357112998,50652.179289912674,50652.04545638791,50651.705664907284
108,50651.12154132178,50650.62222935112,50650.44176487196,50650.383939990636,50650.2631781523,50650.114666861366
109,50649.62033358498,50649.13414587894,50648.71308844944,50648.63347105805,50648.488491637334,50648.265127579536
110,50647.81093961408,50647.37084308299,50647.09084610957,50647.01982139384,50646.906134642944,50646.608149774016
111,50646.21310275646,50645.74138042814,50645.36425459452,50645.28322582629,50645.15693476719,50645.01874903676
112,50644.47111571437,50644.039384447155,50643.59898097768,50643.4976821089,50643.37028257358,50643.19264176597
113,50642.79527972885,50642.267377332275,50641.945615320285,50641.8672779773,50641.691342498474,50641.43510905454
114,50641.026977746114,50640.5696617082,50640.235423241655,50640.123224926865,50639.94653412105,50639.80824213085
115,50639.450657720765,50638.9936531323,50638.6160535908,50638.55720715179,50638.38524087029,50638.069179825514
116,50637.53036492149,50636.90175725795,50636.49297622966,50636.376721917666,50636.22934153352,50635.986391603954
117,50635.68285478778,50635.160603779645,50634.75975577343,50634.60083653573,50634.46148098072,50634.153433408916
118,50633.719021642115,50633.24156935581,50632.898792072956,50632.829069106534,50632.65236387706,50632.33237288582
119,50631.7904766062,50631.391837664276,50631.14237832821,50630.99044614682,50630.84785825303,50630.64702857339
120,50630.14105414439,50629.748140758355,50629.44298371059,50629.40265243689,50629.252465117715,50629.094902667646
121,50628.66357799721,50628.15792508573,50627.721824026856,50627.57342695901,50627.43767995107,50627.30777843258
122,50626.92593334118,50626.504028341784,50626.315617091524,50626.173993756085,50626.04528770608,50625.83023233779
123,50625.352161697316,50624.91480330187,50624.60965221794,50624.51920412,50624.37924552132,50624.13450759362
124,50623.74146140062,50623.24114343815,50622.8648552508,50622.73191123281,50622.607068403224,50622.33431865544
125,50622.04491724041,50621.49265469555,50621.17993092054,50621.09573895217,50620.98717934207,50620.64944091966
126,50620.177955056635,50619.76904547658,50619.318175160326,50619.22685796857,50619.098382697135,50618.84396828071
127,50618.41431725823,50618.05788883752,50617.71112384184,50617.34467663894,50617.23401772737,50616.971558131256
128,50616.54929055247,50616.23460785352,50615.85456503423,50615.56884943871,50615.469424274925,50615.20608103811
129,50614.90603262433,50614.40342055818,50614.0775891107,50613.94051192625,50613.835116330825,50613.64560437525
130,50613.19702200005,50612.84244852596,50612.574320552514,50612.27471354161,50612.17892428165,50611.87160343418
131,50611.35941874447,50610.98280834996,50610.60862519865,50610.34114357299,50610.223099251714,50609.927328373946
132,50609.56608166771,50609.13807716885,50608.88513766749,50608.430886706294,50608.33829783929,50608.18984537481
133,50607.96857840781,50607.64964899479,50607.30126761534,50606.64352546303,50606.5384306621,50606.33542588224
134,50605.897805283625,50605.41679705701,50605.165304629416,50604.545912966234,50604.46006682208,50604.077641299766
135,50603.78050455784,50603.38683324914,50603.17455409097,50602.51002957568,50602.423812317065,50602.166486487105
136,50601.60113814582,50601.272697089706,50601.0913668752,50600.468854714556,50600.359852673195,50600.06930336308
137,50599.895120789566,50599.54157834734,50599.20078052185,50598.85380456299,50598.743428072354,50598.50788025174
138,50598.06662438853,50597.62692824998,50597.43978151985,50596.82964838447,50596.73518458797,50596.552435429614
139,50596.143987186944,50595.77699758622,50595.46741821667,50594.798519454205,50594.70238839672,50594.50466708863
140,50594.138146854246,50593.87784347258,50593.614126706496,50593.12467480652,50593.017757901616,50592.85791351009
141,50592.48901250956,50592.027084102396,50591.96961571812,50591.516768478,50591.427847153376,50591.23909084467
142,50590.89186244145,50590.50751189006,50590.378667128396,50589.92890709358,50589.84420404699,50589.67969610913
143,50589.3197945209,50588.99027774839,50588.85495130479,50588.61937400748,50588.51800282786,50588.346708725716
144,50588.09214859626,50587.65039125427,50587.37682711821,50587.07638162522,50586.998219771194,50586.8659520756
145,50586.48075633224,50586.15985961221,50585.902211081964,50585.36222453648,50585.26061038699,50584.98834068865
146,50584.576004416806,50584.36622964412,50584.136936925395,50583.95309996531,50583.868495294264,50583.68540417097
147,50583.38974741465,50583.07775108338,50582.94503470159,50582.347933790945,50582.27047743819,50582.19198239268
148,50581.862327023075,50581.48599408558,50581.32868569258,50580.52487485988,50580.433342211494,50580.29499505494
149,50579.8657291066,50579.50915290707,50579.398694487216,50578.763923543964,50578.69444231879,50578.50080468261
150,50578.0820599547,50577.81419348879,50577.66298156306,50577.27428263051,50577.172784711765,50576.99368129573
151,50576.63824329046,50576.31989989569,50576.15165330937,50575.404215549584,50575.332937835934,50575.1811043814
152,50574.865130037,50574.589035461155,50574.34278733675,50573.52478365215,50573.45499386626,50573.298379360655
153,50572.94541284596,50572.62940125423,50572.47836549843,50571.913635888806,50571.82919396285,50571.6562340619
154,50571.27977761727,50570.904612847866,50570.80171774629,50570.123700335964,50570.03273384343,50569.89912132942
155,50569.6359742345,50569.30131140817,50569.18922309421,50568.71391502834,50568.65236536668,50568.39951080741
156,50568.03709733666,50567.64560554806,50567.481545901086,50566.81174341526,50566.732726461334,50566.53335507937
157,50566.113840764905,50565.88995425085,50565.84887452281,50565.265006652866,50565.20119079109,50565.051977294264
158,50564.65414942616,50564.386329179535,50564.31665374988,50563.74793391962,50563.68727637943,50563.55561481687
159,50563.290995415075,50563.10896237521,50562.86418614273,50562.582669174815,50562.497797845586,50562.331495350394
160,50561.912895281435,50561.6385969525,50561.513380676515,50560.80510197358,50560.72103795573,50560.55508577972
161,50560.21928991403,50559.96368376729,50559.742672893364,50559.15355720927,50559.08302271116,50558.90301837657
162,50558.41281397587,50558.09129701179,50557.943544273425,50557.451805634424,50557.383313966784,50557.231817935506
163,50556.87047738887,50556.681759102976,50556.58998062113,50555.718983105966,50555.668465022165,50555.55118625354
164,50555.301961004436,50555.13593288119,50555.03299101031,50554.17598393175,50554.10336571728,50554.0351586258
165,50553.723029620945,50553.4534709754,50553.27913605554,50553.109729429474,50553.032802188354,50552.894872488905
166,50552.56232792425,50552.309585068666,50552.21628517866,50551.58274203793,50551.525413149546,50551.460374022405
167,50551.075069863175,50550.73927804441,50550.49062140359,50549.793330492,50549.74507335047,50549.59597688252
168,50549.36370818775,50549.22533461607,50549.09257509257,50548.02391060374,50547.961212132315,50547.8482679893
169,50547.54577830156,50547.145759231746,50546.89752870191,50546.39406463255,50546.34828718459,50546.15414232353
170,50545.74037915058,50545.524015875984,50545.408161202526,50545.10486682582,50545.05102789283,50544.7937408568
171,50544.400327907984,50544.25042226115,50544.083129947634,50543.32871992037,50543.26341578904,50543.02803140404
172,50542.54868239871,50542.343301754234,50542.163393100374,50541.85217182586,50541.80780412394,50541.61683256525
173,50541.36294382979,50541.13728121629,50540.97824175796,50540.085102113975,50540.06251502365,50539.8411258067
174,50539.42991602436,50539.18606482881,50539.05912291548,50538.5761120684,50538.529459565514,50538.415761280456
175,50537.86215140511,50537.62256790903,50537.48369421472,50537.15885887306,50537.08943757184,50536.86588147095
176,50536.47794382112,50536.22323787064,50536.218391174145,50535.819978036416,50535.802815257215,50535.68333399401
